Interference and Diffraction Data File Wed, Mar 30, 2022 3:42 PM
Sensor Position (Meters)	Light Intensity (Volts)
-0.01250	-0.00067
-0.01250	-0.00131
-0.01250	-0.00357
-0.01250	-0.00453
-0.01250	-0.00518
-0.01250	-0.00389
-0.01250	-0.00437
-0.01250	-0.00228
-0.01250	-0.00389
-0.01250	-0.00212
-0.01250	-0.00582
-0.01256	-0.00308
-0.01256	-0.00196
-0.01256	-0.00775
-0.01256	-0.00453
-0.01256	-0.00292
-0.01256	-0.00421
-0.01256	-0.00421
-0.01256	-0.00276
-0.01256	-0.00437
-0.01256	-0.00598
-0.01256	-0.00437
-0.01256	-0.00357
-0.01261	-0.00325
-0.01261	-0.00067
-0.01261	0.00062
-0.01261	-0.00164
-0.01261	-0.00711
-0.01261	-0.00244
-0.01261	-0.00421
-0.01261	-0.00405
-0.01261	-0.00292
-0.01261	-0.00067
-0.01261	-0.00196
-0.01267	0.00126
-0.01267	0.00110
-0.01267	0.00030
-0.01267	0.00191
-0.01267	-0.00341
-0.01267	0.00062
-0.01267	-0.00147
-0.01267	-0.00244
-0.01267	0.00239
-0.01267	0.00465
-0.01267	0.00142
-0.01272	0.00368
-0.01272	-0.00067
-0.01272	0.00175
-0.01272	0.00159
-0.01272	0.00529
-0.01272	0.00384
-0.01272	0.00159
-0.01272	0.00400
-0.01272	0.00497
-0.01272	0.00465
-0.01272	0.00175
-0.01272	0.00481
-0.01278	0.00320
-0.01278	0.00513
-0.01278	0.00320
-0.01278	0.00610
-0.01278	0.00400
-0.01278	0.00432
-0.01278	0.00835
-0.01278	0.00175
-0.01278	0.00626
-0.01278	0.00577
-0.01278	0.00481
-0.01278	0.00867
-0.01283	0.00706
-0.01283	0.00593
-0.01283	0.00545
-0.01283	0.00706
-0.01283	0.00819
-0.01283	0.00722
-0.01283	0.00626
-0.01283	0.00610
-0.01283	0.00722
-0.01283	0.00593
-0.01283	0.00706
-0.01289	0.00271
-0.01289	0.00642
-0.01289	0.00787
-0.01289	0.00610
-0.01289	0.00932
-0.01289	0.00545
-0.01289	0.00803
-0.01289	0.00287
-0.01289	0.00690
-0.01289	0.00626
-0.01289	0.00287
-0.01294	0.00545
-0.01294	0.00352
-0.01294	0.00126
-0.01294	0.00658
-0.01294	0.00432
-0.01294	0.00352
-0.01294	0.00690
-0.01294	0.00336
-0.01294	0.00545
-0.01294	0.00448
-0.01294	0.00642
-0.01294	0.00159
-0.01300	0.00400
-0.01300	0.00191
-0.01300	0.00948
-0.01300	0.00110
-0.01300	0.00191
-0.01300	0.00239
-0.01300	0.00255
-0.01300	-0.00276
-0.01300	-0.00147
-0.01300	0.00110
-0.01300	0.00014
-0.01300	-0.00147
-0.01306	0.00078
-0.01306	-0.00083
-0.01306	-0.00196
-0.01306	-0.00276
-0.01306	-0.00051
-0.01306	-0.00099
-0.01306	0.00094
-0.01306	-0.00180
-0.01306	-0.00325
-0.01306	0.00078
-0.01306	-0.00437
-0.01311	-0.00373
-0.01311	0.00094
-0.01311	-0.00421
-0.01311	-0.00405
-0.01311	-0.00228
-0.01311	-0.00244
-0.01311	-0.00550
-0.01311	-0.00598
-0.01311	-0.00373
-0.01311	-0.00196
-0.01311	-0.00775
-0.01311	-0.00518
-0.01317	-0.00663
-0.01317	-0.00437
-0.01317	-0.00196
-0.01317	-0.00405
-0.01317	-0.00470
-0.01317	-0.00824
-0.01317	-0.00164
-0.01317	-0.00341
-0.01317	-0.00373
-0.01317	-0.00792
-0.01317	-0.00276
-0.01317	-0.00260
-0.01322	-0.00453
-0.01322	-0.00582
-0.01322	-0.00196
-0.01322	-0.00276
-0.01322	-0.01049
-0.01322	-0.00727
-0.01322	-0.00115
-0.01322	-0.00808
-0.01322	-0.00518
-0.01322	-0.00308
-0.01322	-0.00486
-0.01322	-0.00502
-0.01328	-0.00550
-0.01328	-0.00582
-0.01328	-0.00276
-0.01328	-0.00470
-0.01328	-0.00389
-0.01328	-0.00502
-0.01328	-0.00341
-0.01328	-0.00534
-0.01328	-0.00502
-0.01328	-0.00325
-0.01328	-0.00421
-0.01333	-0.00631
-0.01333	-0.00147
-0.01333	0.00239
-0.01333	-0.00260
-0.01333	0.00094
-0.01333	-0.00115
-0.01333	-0.00534
-0.01333	-0.00276
-0.01333	-0.00308
-0.01333	-0.00115
-0.01333	-0.00099
-0.01333	-0.00663
-0.01339	-0.00115
-0.01339	-0.00389
-0.01339	-0.00357
-0.01339	-0.00035
-0.01339	-0.00325
-0.01339	-0.00131
-0.01339	0.00046
-0.01339	0.00030
-0.01339	-0.00292
-0.01339	-0.00421
-0.01339	-0.00260
-0.01339	0.00094
-0.01344	-0.00196
-0.01344	-0.00115
-0.01344	0.00030
-0.01344	-0.00115
-0.01344	-0.00002
-0.01344	-0.00341
-0.01344	-0.00067
-0.01344	-0.00002
-0.01344	0.00223
-0.01344	0.00030
-0.01344	0.00223
-0.01350	-0.00196
-0.01350	0.00126
-0.01350	0.00239
-0.01350	-0.00019
-0.01350	-0.00534
-0.01350	0.00255
-0.01350	-0.00341
-0.01350	-0.00244
-0.01350	-0.00099
-0.01350	-0.00067
-0.01350	-0.00099
-0.01350	-0.00212
-0.01356	-0.00164
-0.01356	-0.00002
-0.01356	-0.00212
-0.01356	-0.00131
-0.01356	0.00175
-0.01356	-0.00292
-0.01356	-0.00308
-0.01356	0.00030
-0.01356	-0.00292
-0.01356	0.00110
-0.01356	-0.00099
-0.01356	-0.00083
-0.01361	-0.00115
-0.01361	-0.00228
-0.01361	-0.00035
-0.01361	0.00030
-0.01361	-0.00534
-0.01361	-0.00308
-0.01361	-0.00502
-0.01361	-0.00099
-0.01361	-0.00357
-0.01361	-0.00276
-0.01361	-0.00260
-0.01367	-0.00147
-0.01367	-0.00695
-0.01367	-0.00405
-0.01367	-0.00260
-0.01367	-0.00631
-0.01367	-0.00389
-0.01367	-0.00147
-0.01367	-0.00534
-0.01367	-0.00486
-0.01367	-0.00582
-0.01367	-0.00486
-0.01372	-0.00099
-0.01372	-0.00985
-0.01372	-0.00180
-0.01372	-0.00550
-0.01372	-0.00437
-0.01372	-0.00550
-0.01372	-0.00856
-0.01372	-0.00357
-0.01372	-0.00453
-0.01372	-0.00405
-0.01372	-0.00260
-0.01372	-0.01098
-0.01378	-0.00260
-0.01378	-0.00663
-0.01378	-0.00582
-0.01378	-0.00437
-0.01378	-0.00759
-0.01378	-0.00308
-0.01378	-0.00775
-0.01378	-0.00582
-0.01378	-0.00727
-0.01378	-0.01001
-0.01378	-0.00759
-0.01378	-0.00067
-0.01383	-0.00518
-0.01383	-0.00647
-0.01383	-0.00920
-0.01383	-0.00824
-0.01383	-0.00518
-0.01383	-0.00937
-0.01383	-0.00502
-0.01383	-0.00888
-0.01383	-0.00357
-0.01383	-0.00711
-0.01383	-0.01033
-0.01383	-0.00711
-0.01389	-0.00663
-0.01389	-0.00405
-0.01389	-0.00953
-0.01389	-0.00486
-0.01389	-0.00582
-0.01389	-0.00872
-0.01389	-0.00727
-0.01389	-0.00792
-0.01389	-0.00550
-0.01389	-0.00405
-0.01389	-0.00679
-0.01394	-0.00840
-0.01394	-0.00743
-0.01394	-0.00937
-0.01394	-0.00405
-0.01394	-0.00373
-0.01394	-0.01081
-0.01394	-0.00631
-0.01394	-0.00840
-0.01394	-0.01081
-0.01394	-0.00888
-0.01394	-0.00518
-0.01400	-0.00437
-0.01400	-0.00582
-0.01400	-0.00437
-0.01400	-0.00985
-0.01400	-0.00792
-0.01400	-0.00276
-0.01400	-0.00389
-0.01400	-0.00470
-0.01400	-0.00727
-0.01400	-0.00534
-0.01400	-0.00341
-0.01400	-0.00759
-0.01406	-0.00470
-0.01406	-0.00663
-0.01406	-0.00260
-0.01406	-0.00695
-0.01406	-0.00341
-0.01406	-0.00792
-0.01406	-0.00486
-0.01406	-0.00373
-0.01406	-0.00083
-0.01406	-0.00405
-0.01406	-0.00357
-0.01411	-0.00502
-0.01411	-0.00486
-0.01411	-0.00453
-0.01411	-0.00373
-0.01411	-0.00550
-0.01411	-0.00196
-0.01411	-0.00421
-0.01411	-0.00228
-0.01411	-0.00566
-0.01411	-0.00389
-0.01411	-0.00260
-0.01411	-0.00373
-0.01417	-0.00228
-0.01417	-0.00357
-0.01417	-0.00308
-0.01417	-0.00228
-0.01417	-0.00405
-0.01417	0.00078
-0.01417	-0.00083
-0.01417	-0.00180
-0.01417	-0.00099
-0.01417	-0.00180
-0.01417	-0.00341
-0.01422	-0.00357
-0.01422	-0.00067
-0.01422	-0.00164
-0.01422	-0.00099
-0.01422	-0.00019
-0.01422	-0.00341
-0.01422	-0.00421
-0.01422	-0.00486
-0.01422	-0.00051
-0.01422	0.00030
-0.01422	0.00014
-0.01422	-0.00164
-0.01428	-0.00099
-0.01428	-0.00147
-0.01428	-0.00147
-0.01428	0.00159
-0.01428	-0.00228
-0.01428	-0.00244
-0.01428	-0.00437
-0.01428	-0.00453
-0.01428	-0.00228
-0.01428	-0.00212
-0.01428	-0.00341
-0.01433	-0.00598
-0.01433	-0.00582
-0.01433	-0.00292
-0.01433	-0.00260
-0.01433	-0.00598
-0.01433	-0.00228
-0.01433	-0.00035
-0.01433	-0.00614
-0.01433	-0.00325
-0.01433	-0.00325
-0.01433	-0.00341
-0.01439	-0.00792
-0.01439	-0.00228
-0.01439	-0.00663
-0.01439	-0.00308
-0.01439	-0.00518
-0.01439	-0.00534
-0.01439	-0.00566
-0.01439	-0.00743
-0.01439	-0.00743
-0.01439	-0.00840
-0.01439	-0.00502
-0.01444	-0.00792
-0.01444	-0.00695
-0.01444	-0.00727
-0.01444	-0.00985
-0.01444	-0.00840
-0.01444	-0.01017
-0.01444	-0.00856
-0.01444	-0.00373
-0.01444	-0.00953
-0.01444	-0.00920
-0.01444	-0.00759
-0.01444	-0.00759
-0.01450	-0.00888
-0.01450	-0.00953
-0.01450	-0.00357
-0.01450	-0.00937
-0.01450	-0.00518
-0.01450	-0.00373
-0.01450	-0.01049
-0.01450	-0.00727
-0.01450	-0.00856
-0.01450	-0.00824
-0.01456	-0.00920
-0.01456	-0.00614
-0.01456	-0.00824
-0.01456	-0.00824
-0.01456	-0.00631
-0.01456	-0.00341
-0.01456	-0.00453
-0.01456	-0.00486
-0.01456	-0.00437
-0.01456	-0.00389
-0.01456	-0.00437
-0.01461	-0.00566
-0.01461	-0.00486
-0.01461	-0.00598
-0.01461	-0.00260
-0.01461	-0.00695
-0.01461	-0.00502
-0.01461	-0.00357
-0.01461	-0.00727
-0.01461	-0.00244
-0.01461	-0.00470
-0.01461	-0.00051
-0.01461	-0.00019
-0.01467	-0.00292
-0.01467	0.00046
-0.01467	-0.00051
-0.01467	0.00078
-0.01467	0.00175
-0.01467	-0.00035
-0.01467	-0.00002
-0.01467	-0.00083
-0.01467	-0.00212
-0.01467	0.00352
-0.01467	0.00110
-0.01472	0.00255
-0.01472	0.00255
-0.01472	-0.00035
-0.01472	0.00465
-0.01472	0.00593
-0.01472	0.00545
-0.01472	0.00481
-0.01472	0.00014
-0.01472	0.00835
-0.01472	0.00416
-0.01472	0.00593
-0.01478	0.00513
-0.01478	0.00642
-0.01478	0.00658
-0.01478	0.00545
-0.01478	0.00610
-0.01478	0.00754
-0.01478	0.00658
-0.01478	0.00803
-0.01478	0.01189
-0.01478	0.00883
-0.01478	0.00980
-0.01483	0.00915
-0.01483	0.00851
-0.01483	0.00706
-0.01483	0.01109
-0.01483	0.00771
-0.01483	0.01077
-0.01483	0.01028
-0.01483	0.00964
-0.01483	0.00867
-0.01483	0.00980
-0.01483	0.01205
-0.01483	0.00803
-0.01489	0.01286
-0.01489	0.00754
-0.01489	0.01157
-0.01489	0.00642
-0.01489	0.01012
-0.01489	0.00787
-0.01489	0.00738
-0.01489	0.00787
-0.01489	0.00674
-0.01489	0.00239
-0.01489	0.00948
-0.01494	0.00867
-0.01494	0.00706
-0.01494	0.00481
-0.01494	0.00529
-0.01494	0.00239
-0.01494	0.00690
-0.01494	0.00513
-0.01494	0.00674
-0.01494	0.00593
-0.01494	0.00626
-0.01494	0.00593
-0.01500	-0.00067
-0.01500	0.00094
-0.01500	-0.00035
-0.01500	0.00336
-0.01500	0.00110
-0.01500	0.00191
-0.01500	-0.00164
-0.01500	-0.00180
-0.01500	0.00126
-0.01500	0.00175
-0.01500	0.00014
-0.01506	-0.00051
-0.01506	-0.00308
-0.01506	-0.00196
-0.01506	-0.00325
-0.01506	0.00223
-0.01506	-0.00099
-0.01506	-0.00308
-0.01506	0.00110
-0.01506	-0.00002
-0.01506	-0.00212
-0.01506	-0.00453
-0.01506	-0.00019
-0.01511	-0.00212
-0.01511	-0.00437
-0.01511	0.00255
-0.01511	-0.00147
-0.01511	-0.00502
-0.01511	0.00094
-0.01511	-0.00292
-0.01511	0.00255
-0.01511	-0.00276
-0.01511	0.00175
-0.01511	-0.00002
-0.01517	-0.00019
-0.01517	0.00142
-0.01517	0.00271
-0.01517	0.00448
-0.01517	0.00448
-0.01517	0.00626
-0.01517	0.00255
-0.01517	0.00207
-0.01517	0.00658
-0.01517	0.00368
-0.01517	0.00996
-0.01517	0.00819
-0.01522	0.00610
-0.01522	0.00883
-0.01522	0.00883
-0.01522	0.00593
-0.01522	0.01238
-0.01522	0.01221
-0.01522	0.00964
-0.01522	0.01189
-0.01522	0.01270
-0.01522	0.00948
-0.01522	0.01527
-0.01528	0.01624
-0.01528	0.01850
-0.01528	0.01640
-0.01528	0.01898
-0.01528	0.01769
-0.01528	0.01833
-0.01528	0.01962
-0.01528	0.01656
-0.01528	0.02172
-0.01528	0.02220
-0.01528	0.02091
-0.01528	0.02268
-0.01533	0.02445
-0.01533	0.02381
-0.01533	0.02671
-0.01533	0.02462
-0.01533	0.02639
-0.01533	0.02510
-0.01533	0.02590
-0.01533	0.02800
-0.01533	0.03299
-0.01533	0.03041
-0.01533	0.02945
-0.01539	0.03106
-0.01539	0.03154
-0.01539	0.03202
-0.01539	0.03589
-0.01539	0.03476
-0.01539	0.03492
-0.01539	0.03235
-0.01539	0.03557
-0.01539	0.03186
-0.01539	0.03380
-0.01539	0.03492
-0.01544	0.03396
-0.01544	0.03315
-0.01544	0.03154
-0.01544	0.03299
-0.01544	0.03573
-0.01544	0.03847
-0.01544	0.03396
-0.01544	0.03138
-0.01544	0.03315
-0.01544	0.02945
-0.01544	0.03524
-0.01544	0.03041
-0.01550	0.03218
-0.01550	0.02848
-0.01550	0.03315
-0.01550	0.03251
-0.01550	0.02977
-0.01550	0.02993
-0.01550	0.02703
-0.01550	0.02880
-0.01550	0.02365
-0.01550	0.02558
-0.01550	0.02510
-0.01550	0.02268
-0.01556	0.02059
-0.01556	0.02542
-0.01556	0.02011
-0.01556	0.02139
-0.01556	0.01914
-0.01556	0.01850
-0.01556	0.01866
-0.01556	0.01801
-0.01556	0.01672
-0.01556	0.01850
-0.01556	0.01415
-0.01561	0.01495
-0.01561	0.01447
-0.01561	0.01463
-0.01561	0.01254
-0.01561	0.01044
-0.01561	0.01109
-0.01561	0.00899
-0.01561	0.01221
-0.01561	0.00803
-0.01561	0.00722
-0.01561	0.00513
-0.01561	0.00948
-0.01567	0.00577
-0.01567	0.00803
-0.01567	0.00497
-0.01567	0.00642
-0.01567	0.00771
-0.01567	0.00771
-0.01567	0.00545
-0.01567	0.00320
-0.01567	0.00448
-0.01567	0.00964
-0.01567	0.00561
-0.01567	0.00352
-0.01572	0.00368
-0.01572	0.00497
-0.01572	0.00497
-0.01572	0.00722
-0.01572	0.00465
-0.01572	0.01093
-0.01572	0.00432
-0.01572	0.01221
-0.01572	0.00996
-0.01572	0.00948
-0.01572	0.01205
-0.01572	0.01366
-0.01578	0.01044
-0.01578	0.01221
-0.01578	0.01785
-0.01578	0.01479
-0.01578	0.01511
-0.01578	0.01334
-0.01578	0.02059
-0.01578	0.02429
-0.01578	0.02172
-0.01578	0.02075
-0.01578	0.02800
-0.01583	0.02542
-0.01583	0.02542
-0.01583	0.02590
-0.01583	0.02912
-0.01583	0.03251
-0.01583	0.03428
-0.01583	0.03637
-0.01583	0.03380
-0.01583	0.03412
-0.01583	0.03734
-0.01583	0.04072
-0.01583	0.03991
-0.01589	0.04459
-0.01589	0.04700
-0.01589	0.04378
-0.01589	0.05038
-0.01589	0.05022
-0.01589	0.04684
-0.01589	0.04893
-0.01589	0.04603
-0.01589	0.05167
-0.01589	0.05054
-0.01589	0.05602
-0.01589	0.05586
-0.01594	0.05264
-0.01594	0.05441
-0.01594	0.05747
-0.01594	0.05393
-0.01594	0.05827
-0.01594	0.06005
-0.01594	0.06085
-0.01594	0.06166
-0.01594	0.05956
-0.01594	0.06407
-0.01594	0.06600
-0.01600	0.06617
-0.01600	0.06794
-0.01600	0.06842
-0.01600	0.06955
-0.01600	0.06858
-0.01600	0.07502
-0.01600	0.07019
-0.01600	0.07422
-0.01600	0.07502
-0.01600	0.07084
-0.01600	0.07615
-0.01606	0.07325
-0.01606	0.07357
-0.01606	0.07422
-0.01606	0.07180
-0.01606	0.07857
-0.01606	0.07486
-0.01606	0.07776
-0.01606	0.07261
-0.01606	0.07229
-0.01606	0.07067
-0.01606	0.07341
-0.01606	0.07084
-0.01611	0.07373
-0.01611	0.07035
-0.01611	0.07035
-0.01611	0.07003
-0.01611	0.06955
-0.01611	0.06697
-0.01611	0.06633
-0.01611	0.06327
-0.01611	0.06182
-0.01611	0.05892
-0.01611	0.05827
-0.01611	0.05924
-0.01617	0.04909
-0.01617	0.04861
-0.01617	0.05199
-0.01617	0.04700
-0.01617	0.04136
-0.01617	0.03991
-0.01617	0.04169
-0.01617	0.03927
-0.01617	0.03605
-0.01617	0.03508
-0.01617	0.02848
-0.01622	0.03267
-0.01622	0.02671
-0.01622	0.02590
-0.01622	0.02687
-0.01622	0.02542
-0.01622	0.02091
-0.01622	0.02397
-0.01622	0.02429
-0.01622	0.01930
-0.01622	0.01833
-0.01622	0.01447
-0.01622	0.01785
-0.01628	0.01383
-0.01628	0.01576
-0.01628	0.01318
-0.01628	0.01077
-0.01628	0.01302
-0.01628	0.01624
-0.01628	0.01141
-0.01628	0.01511
-0.01628	0.01447
-0.01628	0.01350
-0.01628	0.01737
-0.01628	0.01511
-0.01633	0.01672
-0.01633	0.01785
-0.01633	0.01576
-0.01633	0.01850
-0.01633	0.01882
-0.01633	0.01946
-0.01633	0.02220
-0.01633	0.02317
-0.01633	0.02236
-0.01633	0.02590
-0.01633	0.02848
-0.01639	0.02880
-0.01639	0.02800
-0.01639	0.03492
-0.01639	0.03412
-0.01639	0.03959
-0.01639	0.03911
-0.01639	0.04201
-0.01639	0.04475
-0.01639	0.04748
-0.01639	0.04893
-0.01639	0.05360
-0.01644	0.05248
-0.01644	0.05763
-0.01644	0.06246
-0.01644	0.06198
-0.01644	0.06504
-0.01644	0.06778
-0.01644	0.07084
-0.01644	0.07067
-0.01644	0.07985
-0.01644	0.07567
-0.01644	0.08308
-0.01644	0.08324
-0.01650	0.09064
-0.01650	0.08694
-0.01650	0.09113
-0.01650	0.09048
-0.01650	0.09837
-0.01650	0.09966
-0.01650	0.10143
-0.01650	0.10627
-0.01650	0.10466
-0.01650	0.10868
-0.01650	0.10965
-0.01656	0.11158
-0.01656	0.11271
-0.01656	0.11448
-0.01656	0.11722
-0.01656	0.12124
-0.01656	0.12044
-0.01656	0.12076
-0.01656	0.12124
-0.01656	0.12221
-0.01656	0.12446
-0.01656	0.12221
-0.01656	0.12769
-0.01661	0.12479
-0.01661	0.12946
-0.01661	0.12833
-0.01661	0.12736
-0.01661	0.12624
-0.01661	0.12688
-0.01661	0.12881
-0.01661	0.12608
-0.01661	0.12608
-0.01661	0.13010
-0.01661	0.12398
-0.01667	0.12575
-0.01667	0.12318
-0.01667	0.12334
-0.01667	0.12253
-0.01667	0.11738
-0.01667	0.11690
-0.01667	0.11867
-0.01667	0.11367
-0.01667	0.10917
-0.01667	0.11110
-0.01667	0.10691
-0.01672	0.10949
-0.01672	0.10594
-0.01672	0.10192
-0.01672	0.09918
-0.01672	0.10401
-0.01672	0.09580
-0.01672	0.08952
-0.01672	0.09387
-0.01672	0.09290
-0.01672	0.08694
-0.01672	0.08340
-0.01672	0.07824
-0.01678	0.07712
-0.01678	0.07229
-0.01678	0.07373
-0.01678	0.06504
-0.01678	0.06488
-0.01678	0.06327
-0.01678	0.05940
-0.01678	0.05199
-0.01678	0.05232
-0.01678	0.04765
-0.01678	0.04555
-0.01683	0.04539
-0.01683	0.03927
-0.01683	0.04217
-0.01683	0.03669
-0.01683	0.03927
-0.01683	0.03895
-0.01683	0.03218
-0.01683	0.03541
-0.01683	0.03444
-0.01683	0.02655
-0.01683	0.02977
-0.01689	0.02719
-0.01689	0.02123
-0.01689	0.02768
-0.01689	0.02349
-0.01689	0.02623
-0.01689	0.02123
-0.01689	0.02188
-0.01689	0.02075
-0.01689	0.02043
-0.01689	0.01898
-0.01689	0.02220
-0.01689	0.02075
-0.01694	0.02139
-0.01694	0.02204
-0.01694	0.02574
-0.01694	0.02349
-0.01694	0.02349
-0.01694	0.02268
-0.01694	0.03041
-0.01694	0.02639
-0.01694	0.03106
-0.01694	0.03202
-0.01700	0.03444
-0.01700	0.03283
-0.01700	0.03380
-0.01700	0.04120
-0.01700	0.04362
-0.01700	0.04765
-0.01700	0.05393
-0.01700	0.05666
-0.01700	0.05956
-0.01700	0.06198
-0.01700	0.06697
-0.01706	0.06745
-0.01706	0.07325
-0.01706	0.07744
-0.01706	0.08388
-0.01706	0.08485
-0.01706	0.09242
-0.01706	0.09467
-0.01706	0.10015
-0.01706	0.10755
-0.01706	0.10691
-0.01706	0.11255
-0.01711	0.11512
-0.01711	0.12060
-0.01711	0.12527
-0.01711	0.12511
-0.01711	0.13525
-0.01711	0.13236
-0.01711	0.13687
-0.01711	0.14202
-0.01711	0.15233
-0.01711	0.15072
-0.01711	0.14878
-0.01711	0.15506
-0.01717	0.15684
-0.01717	0.16086
-0.01717	0.16473
-0.01717	0.16328
-0.01717	0.16795
-0.01717	0.16698
-0.01717	0.17149
-0.01717	0.17503
-0.01717	0.17455
-0.01717	0.17729
-0.01717	0.17825
-0.01722	0.17584
-0.01722	0.18003
-0.01722	0.17632
-0.01722	0.18083
-0.01722	0.17970
-0.01722	0.17793
-0.01722	0.18244
-0.01722	0.17922
-0.01722	0.18003
-0.01722	0.17584
-0.01728	0.17922
-0.01728	0.17326
-0.01728	0.17085
-0.01728	0.17230
-0.01728	0.16601
-0.01728	0.16779
-0.01728	0.16553
-0.01728	0.16183
-0.01728	0.16360
-0.01728	0.15909
-0.01728	0.15378
-0.01733	0.15506
-0.01733	0.15216
-0.01733	0.14443
-0.01733	0.14266
-0.01733	0.14105
-0.01733	0.13638
-0.01733	0.13139
-0.01733	0.12962
-0.01733	0.12430
-0.01733	0.12543
-0.01733	0.11577
-0.01733	0.11786
-0.01739	0.11061
-0.01739	0.11335
-0.01739	0.10256
-0.01739	0.09999
-0.01739	0.09403
-0.01739	0.09419
-0.01739	0.09370
-0.01739	0.08002
-0.01739	0.07985
-0.01739	0.07373
-0.01739	0.07438
-0.01744	0.07019
-0.01744	0.06069
-0.01744	0.06101
-0.01744	0.05602
-0.01744	0.05602
-0.01744	0.05344
-0.01744	0.05006
-0.01744	0.04877
-0.01744	0.04330
-0.01744	0.04378
-0.01744	0.03991
-0.01750	0.03734
-0.01750	0.03782
-0.01750	0.03315
-0.01750	0.03283
-0.01750	0.03041
-0.01750	0.02961
-0.01750	0.03025
-0.01750	0.02735
-0.01750	0.02816
-0.01750	0.02784
-0.01750	0.02977
-0.01750	0.02961
-0.01756	0.02961
-0.01756	0.02800
-0.01756	0.03186
-0.01756	0.03170
-0.01756	0.03718
-0.01756	0.03798
-0.01756	0.04008
-0.01756	0.03798
-0.01756	0.04024
-0.01756	0.03637
-0.01756	0.04442
-0.01756	0.04571
-0.01761	0.05038
-0.01761	0.05135
-0.01761	0.05586
-0.01761	0.05940
-0.01761	0.05972
-0.01761	0.06278
-0.01761	0.07132
-0.01761	0.07663
-0.01761	0.07824
-0.01761	0.08243
-0.01761	0.09032
-0.01767	0.09306
-0.01767	0.10063
-0.01767	0.10611
-0.01767	0.10788
-0.01767	0.11271
-0.01767	0.11496
-0.01767	0.12543
-0.01767	0.12752
-0.01767	0.13300
-0.01767	0.13429
-0.01767	0.14121
-0.01767	0.14363
-0.01772	0.14991
-0.01772	0.14910
-0.01772	0.15281
-0.01772	0.15265
-0.01772	0.16151
-0.01772	0.16151
-0.01772	0.16440
-0.01772	0.16827
-0.01772	0.17262
-0.01772	0.17809
-0.01772	0.17519
-0.01778	0.18357
-0.01778	0.18502
-0.01778	0.18969
-0.01778	0.18937
-0.01778	0.19388
-0.01778	0.19758
-0.01778	0.20032
-0.01778	0.20289
-0.01778	0.20901
-0.01778	0.20885
-0.01778	0.20885
-0.01778	0.21224
-0.01783	0.21658
-0.01783	0.21481
-0.01783	0.21964
-0.01783	0.21980
-0.01783	0.22254
-0.01783	0.21964
-0.01783	0.22222
-0.01783	0.22512
-0.01783	0.22254
-0.01783	0.22238
-0.01783	0.21932
-0.01789	0.22238
-0.01789	0.21691
-0.01789	0.21691
-0.01789	0.21497
-0.01789	0.21352
-0.01789	0.21127
-0.01789	0.20451
-0.01789	0.20418
-0.01789	0.20177
-0.01789	0.19806
-0.01789	0.19420
-0.01794	0.18808
-0.01794	0.18711
-0.01794	0.18776
-0.01794	0.18196
-0.01794	0.17552
-0.01794	0.17342
-0.01794	0.16634
-0.01794	0.16151
-0.01794	0.16118
-0.01794	0.15410
-0.01794	0.14975
-0.01794	0.14427
-0.01800	0.14315
-0.01800	0.13735
-0.01800	0.13155
-0.01800	0.12785
-0.01800	0.12173
-0.01800	0.11867
-0.01800	0.11045
-0.01800	0.11013
-0.01800	0.10466
-0.01800	0.10240
-0.01800	0.09145
-0.01800	0.08984
-0.01806	0.08517
-0.01806	0.08130
-0.01806	0.08340
-0.01806	0.07535
-0.01806	0.06762
-0.01806	0.06649
-0.01806	0.05988
-0.01806	0.05779
-0.01806	0.05779
-0.01806	0.04990
-0.01806	0.04926
-0.01811	0.04491
-0.01811	0.04539
-0.01811	0.03750
-0.01811	0.04281
-0.01811	0.03589
-0.01811	0.03927
-0.01811	0.03879
-0.01811	0.03686
-0.01811	0.03170
-0.01811	0.03589
-0.01811	0.03412
-0.01811	0.03138
-0.01817	0.03541
-0.01817	0.03299
-0.01817	0.03444
-0.01817	0.03557
-0.01817	0.03734
-0.01817	0.03863
-0.01817	0.04040
-0.01817	0.03975
-0.01817	0.04314
-0.01817	0.04475
-0.01817	0.04974
-0.01817	0.04571
-0.01822	0.05087
-0.01822	0.05602
-0.01822	0.06166
-0.01822	0.06246
-0.01822	0.06053
-0.01822	0.06971
-0.01822	0.07518
-0.01822	0.07728
-0.01822	0.08243
-0.01822	0.08404
-0.01822	0.09097
-0.01828	0.08855
-0.01828	0.09870
-0.01828	0.10514
-0.01828	0.10900
-0.01828	0.11094
-0.01828	0.11384
-0.01828	0.11609
-0.01828	0.12495
-0.01828	0.12704
-0.01828	0.13139
-0.01828	0.13284
-0.01833	0.14266
-0.01833	0.14910
-0.01833	0.15120
-0.01833	0.15313
-0.01833	0.15925
-0.01833	0.16408
-0.01833	0.17133
-0.01833	0.16972
-0.01833	0.17584
-0.01833	0.18051
-0.01833	0.18373
-0.01833	0.18743
-0.01839	0.19645
-0.01839	0.19839
-0.01839	0.20370
-0.01839	0.20128
-0.01839	0.20612
-0.01839	0.21014
-0.01839	0.21336
-0.01839	0.21385
-0.01839	0.22190
-0.01839	0.22480
-0.01839	0.22431
-0.01839	0.22609
-0.01844	0.22641
-0.01844	0.22770
-0.01844	0.23237
-0.01844	0.23059
-0.01844	0.23382
-0.01844	0.23027
-0.01844	0.23027
-0.01844	0.22866
-0.01844	0.23221
-0.01844	0.22802
-0.01844	0.22512
-0.01850	0.22560
-0.01850	0.22045
-0.01850	0.21916
-0.01850	0.21352
-0.01850	0.21594
-0.01850	0.21111
-0.01850	0.21111
-0.01850	0.20145
-0.01850	0.20209
-0.01850	0.19726
-0.01850	0.19629
-0.01850	0.19275
-0.01856	0.18824
-0.01856	0.18743
-0.01856	0.18115
-0.01856	0.17858
-0.01856	0.17391
-0.01856	0.17552
-0.01856	0.16924
-0.01856	0.16457
-0.01856	0.16183
-0.01856	0.15973
-0.01856	0.15812
-0.01861	0.14975
-0.01861	0.15023
-0.01861	0.14991
-0.01861	0.14186
-0.01861	0.13896
-0.01861	0.13477
-0.01861	0.12962
-0.01861	0.12398
-0.01861	0.12446
-0.01861	0.11996
-0.01861	0.11770
-0.01861	0.11303
-0.01867	0.11045
-0.01867	0.10272
-0.01867	0.10208
-0.01867	0.09612
-0.01867	0.09596
-0.01867	0.08678
-0.01867	0.08694
-0.01867	0.08469
-0.01867	0.07631
-0.01867	0.07373
-0.01867	0.06423
-0.01872	0.06762
-0.01872	0.06278
-0.01872	0.06246
-0.01872	0.05650
-0.01872	0.05811
-0.01872	0.05054
-0.01872	0.04926
-0.01872	0.04684
-0.01872	0.04491
-0.01872	0.04587
-0.01872	0.04120
-0.01878	0.04056
-0.01878	0.03911
-0.01878	0.03798
-0.01878	0.03637
-0.01878	0.03492
-0.01878	0.03814
-0.01878	0.03637
-0.01878	0.03363
-0.01878	0.03492
-0.01878	0.03637
-0.01878	0.03508
-0.01878	0.04748
-0.01883	0.04297
-0.01883	0.04410
-0.01883	0.04700
-0.01883	0.04748
-0.01883	0.05570
-0.01883	0.05328
-0.01883	0.05779
-0.01883	0.06423
-0.01883	0.06729
-0.01883	0.07132
-0.01883	0.07712
-0.01889	0.08308
-0.01889	0.09000
-0.01889	0.09644
-0.01889	0.09854
-0.01889	0.10530
-0.01889	0.10965
-0.01889	0.11174
-0.01889	0.12334
-0.01889	0.12060
-0.01889	0.13107
-0.01889	0.13171
-0.01889	0.13606
-0.01894	0.14733
-0.01894	0.14766
-0.01894	0.15216
-0.01894	0.15700
-0.01894	0.15957
-0.01894	0.16263
-0.01894	0.17342
-0.01894	0.17117
-0.01894	0.17761
-0.01894	0.18292
-0.01894	0.18325
-0.01900	0.18711
-0.01900	0.19130
-0.01900	0.19645
-0.01900	0.20032
-0.01900	0.20338
-0.01900	0.20563
-0.01900	0.20692
-0.01900	0.21046
-0.01900	0.21465
-0.01900	0.21787
-0.01900	0.21964
-0.01900	0.22125
-0.01906	0.22013
-0.01906	0.22399
-0.01906	0.22335
-0.01906	0.22560
-0.01906	0.22560
-0.01906	0.22898
-0.01906	0.22947
-0.01906	0.22947
-0.01906	0.23011
-0.01906	0.22802
-0.01906	0.23011
-0.01911	0.22673
-0.01911	0.22737
-0.01911	0.22431
-0.01911	0.22238
-0.01911	0.22158
-0.01911	0.22141
-0.01911	0.21417
-0.01911	0.21320
-0.01911	0.21062
-0.01911	0.21030
-0.01911	0.20370
-0.01917	0.20128
-0.01917	0.19355
-0.01917	0.19774
-0.01917	0.19758
-0.01917	0.19243
-0.01917	0.18486
-0.01917	0.18663
-0.01917	0.18035
-0.01917	0.17793
-0.01917	0.17004
-0.01917	0.16924
-0.01922	0.16183
-0.01922	0.15812
-0.01922	0.15490
-0.01922	0.15522
-0.01922	0.14959
-0.01922	0.14282
-0.01922	0.14282
-0.01922	0.13397
-0.01922	0.13332
-0.01922	0.13107
-0.01922	0.12688
-0.01922	0.12173
-0.01928	0.11545
-0.01928	0.11013
-0.01928	0.11094
-0.01928	0.10240
-0.01928	0.09966
-0.01928	0.09902
-0.01928	0.09000
-0.01928	0.08920
-0.01928	0.08694
-0.01928	0.08549
-0.01928	0.07776
-0.01933	0.07390
-0.01933	0.07293
-0.01933	0.07100
-0.01933	0.06762
-0.01933	0.06488
-0.01933	0.05940
-0.01933	0.05715
-0.01933	0.05344
-0.01933	0.05618
-0.01933	0.04861
-0.01933	0.04700
-0.01939	0.04813
-0.01939	0.04314
-0.01939	0.04056
-0.01939	0.04314
-0.01939	0.03895
-0.01939	0.03863
-0.01939	0.03235
-0.01939	0.04136
-0.01939	0.03557
-0.01939	0.03380
-0.01939	0.03444
-0.01944	0.03122
-0.01944	0.03589
-0.01944	0.03347
-0.01944	0.03267
-0.01944	0.03605
-0.01944	0.02912
-0.01944	0.03508
-0.01944	0.03396
-0.01944	0.03653
-0.01944	0.04040
-0.01944	0.04104
-0.01950	0.04056
-0.01950	0.04394
-0.01950	0.04765
-0.01950	0.04893
-0.01950	0.04394
-0.01950	0.05441
-0.01950	0.05586
-0.01950	0.05940
-0.01950	0.06262
-0.01950	0.06375
-0.01950	0.06729
-0.01956	0.07229
-0.01956	0.07277
-0.01956	0.08195
-0.01956	0.08324
-0.01956	0.08436
-0.01956	0.08791
-0.01956	0.09129
-0.01956	0.10079
-0.01956	0.10224
-0.01956	0.10820
-0.01956	0.10836
-0.01961	0.11287
-0.01961	0.11915
-0.01961	0.12028
-0.01961	0.12446
-0.01961	0.13171
-0.01961	0.13429
-0.01961	0.13574
-0.01961	0.14154
-0.01961	0.14218
-0.01961	0.14621
-0.01961	0.15007
-0.01967	0.15587
-0.01967	0.15571
-0.01967	0.16151
-0.01967	0.16650
-0.01967	0.16569
-0.01967	0.17262
-0.01967	0.17133
-0.01967	0.17680
-0.01967	0.17858
-0.01967	0.17922
-0.01967	0.18196
-0.01972	0.18196
-0.01972	0.18808
-0.01972	0.18421
-0.01972	0.18921
-0.01972	0.18904
-0.01972	0.19210
-0.01972	0.19001
-0.01972	0.19017
-0.01972	0.19210
-0.01972	0.18985
-0.01978	0.18953
-0.01978	0.19162
-0.01978	0.19146
-0.01978	0.18953
-0.01978	0.18792
-0.01978	0.18534
-0.01978	0.18421
-0.01978	0.18083
-0.01978	0.18212
-0.01978	0.17809
-0.01978	0.18067
-0.01983	0.17938
-0.01983	0.17230
-0.01983	0.17455
-0.01983	0.16827
-0.01983	0.16714
-0.01983	0.16167
-0.01983	0.15909
-0.01983	0.15651
-0.01983	0.15410
-0.01983	0.14782
-0.01983	0.14315
-0.01983	0.14460
-0.01989	0.13976
-0.01989	0.13735
-0.01989	0.12720
-0.01989	0.12833
-0.01989	0.12543
-0.01989	0.11834
-0.01989	0.11528
-0.01989	0.11174
-0.01989	0.10820
-0.01989	0.10385
-0.01989	0.10240
-0.01994	0.09403
-0.01994	0.09161
-0.01994	0.08517
-0.01994	0.08404
-0.01994	0.07953
-0.01994	0.07841
-0.01994	0.06874
-0.01994	0.07502
-0.01994	0.06681
-0.01994	0.06198
-0.01994	0.06005
-0.02000	0.05602
-0.02000	0.05425
-0.02000	0.05151
-0.02000	0.04797
-0.02000	0.04442
-0.02000	0.04587
-0.02000	0.03879
-0.02000	0.04056
-0.02000	0.03782
-0.02000	0.03331
-0.02000	0.03460
-0.02006	0.03428
-0.02006	0.02977
-0.02006	0.03218
-0.02006	0.02912
-0.02006	0.03074
-0.02006	0.02735
-0.02006	0.02413
-0.02006	0.03154
-0.02006	0.02574
-0.02006	0.02687
-0.02006	0.02494
-0.02011	0.02542
-0.02011	0.03170
-0.02011	0.02929
-0.02011	0.03412
-0.02011	0.03202
-0.02011	0.03267
-0.02011	0.03541
-0.02011	0.03669
-0.02011	0.03847
-0.02011	0.04297
-0.02011	0.04394
-0.02017	0.04475
-0.02017	0.04716
-0.02017	0.05296
-0.02017	0.04942
-0.02017	0.06069
-0.02017	0.05634
-0.02017	0.06423
-0.02017	0.06423
-0.02017	0.06955
-0.02017	0.07567
-0.02017	0.07647
-0.02022	0.07841
-0.02022	0.07841
-0.02022	0.08179
-0.02022	0.08356
-0.02022	0.09193
-0.02022	0.09338
-0.02022	0.09338
-0.02022	0.10047
-0.02022	0.10031
-0.02022	0.10401
-0.02022	0.10385
-0.02028	0.11029
-0.02028	0.10949
-0.02028	0.11528
-0.02028	0.11754
-0.02028	0.12076
-0.02028	0.11883
-0.02028	0.12318
-0.02028	0.12624
-0.02028	0.12608
-0.02028	0.13300
-0.02028	0.13284
-0.02033	0.13590
-0.02033	0.13493
-0.02033	0.13896
-0.02033	0.13815
-0.02033	0.13848
-0.02033	0.14282
-0.02033	0.14186
-0.02033	0.13912
-0.02033	0.14234
-0.02033	0.13509
-0.02033	0.13976
-0.02039	0.13622
-0.02039	0.13767
-0.02039	0.12897
-0.02039	0.13735
-0.02039	0.13042
-0.02039	0.12672
-0.02039	0.13139
-0.02039	0.13381
-0.02039	0.12495
-0.02039	0.12736
-0.02039	0.11899
-0.02039	0.12012
-0.02044	0.11915
-0.02044	0.11126
-0.02044	0.11303
-0.02044	0.11094
-0.02044	0.10111
-0.02044	0.10337
-0.02044	0.09789
-0.02044	0.09805
-0.02044	0.09193
-0.02044	0.09226
-0.02044	0.08871
-0.02050	0.08758
-0.02050	0.08227
-0.02050	0.07905
-0.02050	0.07889
-0.02050	0.07390
-0.02050	0.07019
-0.02050	0.06488
-0.02050	0.06294
-0.02050	0.05924
-0.02050	0.05908
-0.02050	0.05376
-0.02056	0.05747
-0.02056	0.05135
-0.02056	0.04732
-0.02056	0.04442
-0.02056	0.03959
-0.02056	0.04314
-0.02056	0.03589
-0.02056	0.03895
-0.02056	0.03541
-0.02056	0.03573
-0.02056	0.02961
-0.02061	0.02896
-0.02061	0.02558
-0.02061	0.02719
-0.02061	0.02445
-0.02061	0.02687
-0.02061	0.02172
-0.02061	0.02252
-0.02061	0.01995
-0.02061	0.01962
-0.02061	0.02284
-0.02061	0.02252
-0.02061	0.01592
-0.02067	0.02252
-0.02067	0.01672
-0.02067	0.01882
-0.02067	0.02220
-0.02067	0.02333
-0.02067	0.02172
-0.02067	0.01882
-0.02067	0.02043
-0.02067	0.02139
-0.02067	0.02059
-0.02067	0.02301
-0.02067	0.02349
-0.02072	0.02317
-0.02072	0.02478
-0.02072	0.02687
-0.02072	0.02429
-0.02072	0.03074
-0.02072	0.02623
-0.02072	0.03186
-0.02072	0.03106
-0.02072	0.03235
-0.02072	0.03460
-0.02078	0.03686
-0.02078	0.03959
-0.02078	0.03718
-0.02078	0.04265
-0.02078	0.03879
-0.02078	0.04587
-0.02078	0.04861
-0.02078	0.04813
-0.02078	0.05280
-0.02078	0.05038
-0.02078	0.05425
-0.02078	0.05135
-0.02083	0.05715
-0.02083	0.05264
-0.02083	0.06262
-0.02083	0.06037
-0.02083	0.06472
-0.02083	0.06423
-0.02083	0.06633
-0.02083	0.06633
-0.02083	0.06923
-0.02083	0.07100
-0.02083	0.07277
-0.02089	0.07599
-0.02089	0.07148
-0.02089	0.07647
-0.02089	0.07841
-0.02089	0.07969
-0.02089	0.08227
-0.02089	0.08018
-0.02089	0.08147
-0.02089	0.08002
-0.02089	0.07857
-0.02089	0.08195
-0.02089	0.08726
-0.02094	0.08485
-0.02094	0.08501
-0.02094	0.08614
-0.02094	0.08614
-0.02094	0.08275
-0.02094	0.08565
-0.02094	0.08324
-0.02094	0.09177
-0.02094	0.08807
-0.02094	0.08630
-0.02094	0.08581
-0.02100	0.08984
-0.02100	0.08581
-0.02100	0.08533
-0.02100	0.08259
-0.02100	0.08662
-0.02100	0.08372
-0.02100	0.08356
-0.02100	0.08485
-0.02100	0.08372
-0.02100	0.07921
-0.02100	0.07969
-0.02106	0.08002
-0.02106	0.07857
-0.02106	0.07857
-0.02106	0.07438
-0.02106	0.07776
-0.02106	0.07373
-0.02106	0.07535
-0.02106	0.07277
-0.02106	0.07180
-0.02106	0.07067
-0.02106	0.07084
-0.02106	0.06439
-0.02111	0.06762
-0.02111	0.06842
-0.02111	0.06423
-0.02111	0.06423
-0.02111	0.05876
-0.02111	0.05940
-0.02111	0.06005
-0.02111	0.05892
-0.02111	0.05538
-0.02111	0.05699
-0.02117	0.05167
-0.02117	0.05119
-0.02117	0.04813
-0.02117	0.04765
-0.02117	0.04426
-0.02117	0.04249
-0.02117	0.04378
-0.02117	0.04265
-0.02117	0.03750
-0.02117	0.03766
-0.02117	0.03412
-0.02117	0.03605
-0.02122	0.03267
-0.02122	0.03074
-0.02122	0.02912
-0.02122	0.02864
-0.02122	0.03025
-0.02122	0.02655
-0.02122	0.02284
-0.02122	0.02623
-0.02122	0.02252
-0.02122	0.02059
-0.02122	0.01850
-0.02128	0.02123
-0.02128	0.01850
-0.02128	0.01012
-0.02128	0.01447
-0.02128	0.01769
-0.02128	0.01221
-0.02128	0.01495
-0.02128	0.01608
-0.02128	0.01125
-0.02128	0.01109
-0.02128	0.01495
-0.02133	0.01447
-0.02133	0.01334
-0.02133	0.01447
-0.02133	0.01141
-0.02133	0.01431
-0.02133	0.01366
-0.02133	0.01544
-0.02133	0.01479
-0.02133	0.01318
-0.02133	0.01544
-0.02133	0.01270
-0.02139	0.01544
-0.02139	0.01527
-0.02139	0.01318
-0.02139	0.01882
-0.02139	0.02188
-0.02139	0.01576
-0.02139	0.01882
-0.02139	0.01769
-0.02139	0.02204
-0.02139	0.02365
-0.02139	0.01833
-0.02144	0.02252
-0.02144	0.02719
-0.02144	0.02864
-0.02144	0.02220
-0.02144	0.02590
-0.02144	0.02558
-0.02144	0.02784
-0.02144	0.03057
-0.02144	0.02832
-0.02144	0.03331
-0.02144	0.03106
-0.02150	0.02961
-0.02150	0.03524
-0.02150	0.03412
-0.02150	0.03975
-0.02150	0.03331
-0.02150	0.03798
-0.02150	0.03605
-0.02150	0.03959
-0.02150	0.03782
-0.02150	0.03927
-0.02150	0.04072
-0.02150	0.03814
-0.02156	0.04491
-0.02156	0.04281
-0.02156	0.04297
-0.02156	0.04072
-0.02156	0.04603
-0.02156	0.04120
-0.02156	0.04346
-0.02156	0.04410
-0.02156	0.04201
-0.02156	0.04426
-0.02161	0.04716
-0.02161	0.04378
-0.02161	0.04603
-0.02161	0.04475
-0.02161	0.04507
-0.02161	0.04136
-0.02161	0.04297
-0.02161	0.04185
-0.02161	0.04136
-0.02161	0.03798
-0.02161	0.04281
-0.02167	0.04378
-0.02167	0.03879
-0.02167	0.03460
-0.02167	0.03734
-0.02167	0.03363
-0.02167	0.03508
-0.02167	0.03766
-0.02167	0.03492
-0.02167	0.03557
-0.02167	0.03508
-0.02167	0.03202
-0.02172	0.02912
-0.02172	0.02832
-0.02172	0.02735
-0.02172	0.02462
-0.02172	0.02896
-0.02172	0.02462
-0.02172	0.02236
-0.02172	0.02462
-0.02172	0.02011
-0.02172	0.02284
-0.02172	0.02107
-0.02178	0.01898
-0.02178	0.01914
-0.02178	0.01415
-0.02178	0.01447
-0.02178	0.01640
-0.02178	0.01334
-0.02178	0.01737
-0.02178	0.01270
-0.02178	0.01238
-0.02178	0.01254
-0.02178	0.01399
-0.02183	0.00803
-0.02183	0.01173
-0.02183	0.01205
-0.02183	0.00964
-0.02183	0.00803
-0.02183	0.00948
-0.02183	0.00883
-0.02183	0.00738
-0.02183	0.00545
-0.02183	0.00593
-0.02183	0.01141
-0.02189	0.00577
-0.02189	0.00706
-0.02189	0.00545
-0.02189	0.01205
-0.02189	0.00448
-0.02189	0.00787
-0.02189	0.00803
-0.02189	0.00771
-0.02189	0.00738
-0.02189	0.00626
-0.02189	0.00754
-0.02189	0.00819
-0.02194	0.00883
-0.02194	0.00867
-0.02194	0.00996
-0.02194	0.00738
-0.02194	0.01060
-0.02194	0.00867
-0.02194	0.00803
-0.02194	0.01318
-0.02194	0.00787
-0.02194	0.01205
-0.02200	0.01028
-0.02200	0.01527
-0.02200	0.01189
-0.02200	0.01544
-0.02200	0.01415
-0.02200	0.01399
-0.02200	0.01640
-0.02200	0.01479
-0.02200	0.01705
-0.02200	0.01205
-0.02200	0.01672
-0.02206	0.01221
-0.02206	0.01753
-0.02206	0.01866
-0.02206	0.01527
-0.02206	0.01656
-0.02206	0.01737
-0.02206	0.01769
-0.02206	0.01479
-0.02206	0.01817
-0.02206	0.02075
-0.02211	0.01495
-0.02211	0.01995
-0.02211	0.01640
-0.02211	0.01833
-0.02211	0.01350
-0.02211	0.01672
-0.02211	0.01817
-0.02211	0.02011
-0.02211	0.01431
-0.02211	0.01785
-0.02211	0.01495
-0.02211	0.02043
-0.02217	0.02011
-0.02217	0.01495
-0.02217	0.01962
-0.02217	0.01318
-0.02217	0.01286
-0.02217	0.01737
-0.02217	0.01270
-0.02217	0.01592
-0.02217	0.01463
-0.02217	0.01721
-0.02222	0.01624
-0.02222	0.01415
-0.02222	0.01109
-0.02222	0.01592
-0.02222	0.01334
-0.02222	0.01415
-0.02222	0.01624
-0.02222	0.01157
-0.02222	0.01302
-0.02222	0.01028
-0.02222	0.01270
-0.02228	0.01238
-0.02228	0.00787
-0.02228	0.00674
-0.02228	0.00706
-0.02228	0.01077
-0.02228	0.00867
-0.02228	0.01012
-0.02228	0.00803
-0.02228	0.00513
-0.02228	0.00771
-0.02233	0.00336
-0.02233	0.00771
-0.02233	0.00287
-0.02233	0.00545
-0.02233	0.00642
-0.02233	0.00577
-0.02233	0.00400
-0.02233	0.00159
-0.02233	0.00320
-0.02233	0.00513
-0.02233	0.00046
-0.02233	0.00545
-0.02239	0.00368
-0.02239	0.00271
-0.02239	0.00191
-0.02239	0.00706
-0.02239	-0.00180
-0.02239	0.00191
-0.02239	-0.00244
-0.02239	0.00352
-0.02239	0.00062
-0.02239	0.00400
-0.02239	0.00078
-0.02244	0.00110
-0.02244	-0.00228
-0.02244	0.00304
-0.02244	0.00030
-0.02244	0.00126
-0.02244	-0.00212
-0.02244	0.00481
-0.02244	0.00207
-0.02244	0.00239
-0.02244	0.00126
-0.02250	0.00175
-0.02250	0.00159
-0.02250	0.00223
-0.02250	0.00126
-0.02250	0.00223
-0.02250	0.00110
-0.02250	0.00384
-0.02250	0.00207
-0.02250	0.00304
-0.02250	-0.00002
-0.02250	0.00304
-0.02250	0.00545
-0.02256	0.00320
-0.02256	0.00304
-0.02256	-0.00051
-0.02256	0.00255
-0.02256	0.00191
-0.02256	0.00432
-0.02256	0.00577
-0.02256	0.00255
-0.02256	0.00658
-0.02256	0.00126
-0.02256	0.00561
-0.02261	0.00577
-0.02261	0.00448
-0.02261	0.00465
-0.02261	0.00497
-0.02261	-0.00035
-0.02261	0.00867
-0.02261	0.00465
-0.02261	0.00481
-0.02261	0.00545
-0.02261	0.00448
-0.02261	0.00738
-0.02267	0.00690
-0.02267	0.00465
-0.02267	0.00690
-0.02267	0.00384
-0.02267	0.00497
-0.02267	0.00851
-0.02267	0.00851
-0.02267	0.00159
-0.02267	0.00771
-0.02267	0.00561
-0.02267	0.00883
-0.02272	0.00304
-0.02272	0.00964
-0.02272	0.00545
-0.02272	0.00481
-0.02272	0.00481
-0.02272	0.00529
-0.02272	0.00593
-0.02272	0.00738
-0.02272	0.00787
-0.02272	0.00771
-0.02272	0.00738
-0.02278	0.00561
-0.02278	0.00642
-0.02278	0.00529
-0.02278	0.00787
-0.02278	0.00787
-0.02278	0.00207
-0.02278	0.00626
-0.02278	0.00304
-0.02278	0.00320
-0.02278	0.00545
-0.02278	0.00336
-0.02283	0.00610
-0.02283	-0.00147
-0.02283	0.00658
-0.02283	0.00738
-0.02283	0.00481
-0.02283	0.00400
-0.02283	0.00175
-0.02283	0.00320
-0.02283	0.00384
-0.02283	0.00271
-0.02283	-0.00035
-0.02289	0.00175
-0.02289	0.00078
-0.02289	0.00078
-0.02289	0.00110
-0.02289	0.00271
-0.02289	0.00110
-0.02289	-0.00019
-0.02289	0.00239
-0.02289	-0.00131
-0.02289	0.00320
-0.02289	0.00384
-0.02294	0.00062
-0.02294	-0.00051
-0.02294	-0.00196
-0.02294	0.00142
-0.02294	0.00110
-0.02294	-0.00019
-0.02294	-0.00244
-0.02294	0.00271
-0.02294	-0.00196
-0.02294	-0.00051
-0.02294	0.00142
-0.02294	-0.00341
-0.02300	0.00207
-0.02300	-0.00131
-0.02300	-0.00067
-0.02300	0.00352
-0.02300	-0.00212
-0.02300	-0.00389
-0.02300	-0.00260
-0.02300	0.00014
-0.02300	-0.00325
-0.02300	0.00175
-0.02300	-0.00099
-0.02306	-0.00421
-0.02306	-0.00228
-0.02306	-0.00180
-0.02306	0.00094
-0.02306	-0.00067
-0.02306	-0.00421
-0.02306	-0.00067
-0.02306	-0.00341
-0.02306	-0.00164
-0.02306	-0.00308
-0.02306	-0.00002
-0.02311	-0.00292
-0.02311	-0.00035
-0.02311	0.00046
-0.02311	-0.00550
-0.02311	0.00078
-0.02311	0.00046
-0.02311	-0.00147
-0.02311	-0.00212
-0.02311	-0.00002
-0.02311	-0.00196
-0.02311	-0.00260
-0.02317	-0.00421
-0.02317	-0.00035
-0.02317	-0.00019
-0.02317	0.00110
-0.02317	0.00126
-0.02317	0.00110
-0.02317	-0.00083
-0.02317	-0.00389
-0.02317	0.00046
-0.02317	-0.00147
-0.02317	-0.00067
-0.02317	0.00046
-0.02317	-0.00147
-0.02322	0.00030
-0.02322	0.00175
-0.02322	0.00062
-0.02322	0.00352
-0.02322	-0.00035
-0.02322	-0.00244
-0.02322	0.00304
-0.02322	0.00223
-0.02322	0.00271
-0.02322	0.00062
-0.02322	-0.00002
-0.02328	0.00223
-0.02328	-0.00019
-0.02328	-0.00083
-0.02328	0.00239
-0.02328	0.00271
-0.02328	0.00255
-0.02328	0.00368
-0.02328	0.00046
-0.02328	0.00175
-0.02328	-0.00164
-0.02328	0.00529
-0.02333	0.00416
-0.02333	0.00191
-0.02333	0.00304
-0.02333	0.00126
-0.02333	0.00142
-0.02333	0.00287
-0.02333	0.00191
-0.02333	0.00384
-0.02333	0.00175
-0.02333	0.00465
-0.02333	0.00175
-0.02333	0.00207
-0.02339	0.00062
-0.02339	0.00271
-0.02339	0.00223
-0.02339	0.00062
-0.02339	0.00126
-0.02339	-0.00276
-0.02339	0.00062
-0.02339	0.00722
-0.02339	0.00497
-0.02339	0.00223
-0.02339	0.00448
-0.02344	0.00062
-0.02344	0.00320
-0.02344	0.00094
-0.02344	-0.00035
-0.02344	0.00368
-0.02344	0.00352
-0.02344	0.00078
-0.02344	0.00561
-0.02344	-0.00308
-0.02344	0.00014
-0.02344	0.00368
-0.02350	0.00239
-0.02350	0.00336
-0.02350	0.00223
-0.02350	0.00320
-0.02350	-0.00035
-0.02350	0.00287
-0.02350	0.00271
-0.02350	0.00110
-0.02350	0.00207
-0.02350	-0.00002
-0.02350	0.00175
-0.02356	-0.00244
-0.02356	0.00142
-0.02356	-0.00067
-0.02356	0.00078
-0.02356	-0.00147
-0.02356	-0.00051
-0.02356	0.00078
-0.02356	-0.00051
-0.02356	0.00110
-0.02356	-0.00212
-0.02356	0.00094
-0.02356	-0.00518
-0.02361	-0.00035
-0.02361	-0.00276
-0.02361	-0.00035
-0.02361	-0.00679
-0.02361	-0.00180
-0.02361	0.00142
-0.02361	-0.00019
-0.02361	0.00062
-0.02361	-0.00373
-0.02361	-0.00325
-0.02361	0.00110
-0.02367	-0.00099
-0.02367	0.00014
-0.02367	-0.00373
-0.02367	-0.00147
-0.02367	-0.00051
-0.02367	-0.00308
-0.02367	0.00030
-0.02367	-0.00486
-0.02367	-0.00212
-0.02367	-0.00292
-0.02367	-0.00405
-0.02372	-0.00421
-0.02372	-0.00598
-0.02372	-0.00212
-0.02372	-0.00051
-0.02372	-0.00582
-0.02372	-0.00292
-0.02372	-0.00228
-0.02372	-0.00115
-0.02372	-0.00405
-0.02372	-0.00067
-0.02372	-0.00518
-0.02378	-0.00002
-0.02378	-0.00067
-0.02378	-0.00292
-0.02378	-0.00486
-0.02378	-0.00131
-0.02378	-0.00437
-0.02378	-0.00260
-0.02378	-0.00019
-0.02378	-0.00405
-0.02378	0.00078
-0.02378	-0.00437
-0.02378	0.00159
-0.02383	-0.00180
-0.02383	-0.00196
-0.02383	-0.00115
-0.02383	-0.00470
-0.02383	-0.00147
-0.02383	-0.00196
-0.02383	-0.00035
-0.02383	0.00304
-0.02383	0.00030
-0.02383	-0.00228
-0.02383	-0.00051
-0.02389	0.00191
-0.02389	-0.00115
-0.02389	0.00271
-0.02389	-0.00470
-0.02389	0.00207
-0.02389	0.00062
-0.02389	0.00287
-0.02389	0.00255
-0.02389	0.00078
-0.02389	0.00561
-0.02389	-0.00051
-0.02394	0.00304
-0.02394	0.00191
-0.02394	0.00175
-0.02394	0.00046
-0.02394	0.00078
-0.02394	0.00336
-0.02394	0.00239
-0.02394	0.00239
-0.02394	0.00320
-0.02394	0.00448
-0.02394	0.00690
-0.02400	0.00497
-0.02400	0.00529
-0.02400	0.00271
-0.02400	0.00561
-0.02400	0.00159
-0.02400	0.00690
-0.02400	0.00255
-0.02400	0.00320
-0.02400	0.00416
-0.02400	0.00416
-0.02400	0.00642
-0.02400	0.00432
-0.02406	0.00626
-0.02406	0.00754
-0.02406	0.00513
-0.02406	0.00465
-0.02406	0.00126
-0.02406	0.00593
-0.02406	0.00626
-0.02406	0.00593
-0.02406	0.00465
-0.02406	0.00320
-0.02411	0.00465
-0.02411	0.00384
-0.02411	0.00287
-0.02411	0.00271
-0.02411	0.00400
-0.02411	-0.00035
-0.02411	0.00159
-0.02411	0.00577
-0.02411	0.00384
-0.02411	0.00384
-0.02411	0.00110
-0.02417	0.00287
-0.02417	-0.00067
-0.02417	0.00255
-0.02417	0.00255
-0.02417	0.00014
-0.02417	0.00400
-0.02417	-0.00196
-0.02417	0.00336
-0.02417	0.00287
-0.02417	0.00126
-0.02417	-0.00099
-0.02417	0.00014
-0.02422	0.00030
-0.02422	0.00014
-0.02422	-0.00341
-0.02422	0.00014
-0.02422	-0.00196
-0.02422	-0.00067
-0.02422	0.00255
-0.02422	-0.00598
-0.02422	-0.00115
-0.02422	-0.00502
-0.02422	0.00014
-0.02428	-0.00373
-0.02428	-0.00164
-0.02428	-0.00453
-0.02428	-0.00679
-0.02428	-0.00357
-0.02428	-0.00228
-0.02428	-0.00389
-0.02428	-0.00260
-0.02428	-0.00196
-0.02428	-0.00115
-0.02428	-0.00631
-0.02433	-0.00470
-0.02433	-0.00212
-0.02433	-0.00470
-0.02433	-0.00115
-0.02433	-0.00904
-0.02433	-0.00518
-0.02433	-0.00373
-0.02433	-0.00228
-0.02433	-0.00131
-0.02433	-0.00453
-0.02433	-0.00325
-0.02439	-0.00534
-0.02439	-0.00582
-0.02439	-0.00357
-0.02439	-0.00405
-0.02439	-0.00582
-0.02439	-0.00260
-0.02439	-0.00131
-0.02439	-0.00727
-0.02439	-0.00260
-0.02439	-0.00341
-0.02439	-0.00486
-0.02444	-0.00437
-0.02444	0.00014
-0.02444	-0.00453
-0.02444	-0.00131
-0.02444	-0.00260
-0.02444	-0.00083
-0.02444	0.00030
-0.02444	0.00062
-0.02444	-0.00502
-0.02444	-0.00244
-0.02444	-0.00002
-0.02450	-0.00325
-0.02450	0.00223
-0.02450	-0.00244
-0.02450	0.00287
-0.02450	-0.00067
-0.02450	-0.00035
-0.02450	-0.00244
-0.02450	0.00159
-0.02450	-0.00228
-0.02450	0.00191
-0.02456	-0.00083
-0.02456	0.00320
-0.02456	-0.00035
-0.02456	0.00448
-0.02456	0.00078
-0.02456	0.00432
-0.02456	0.00320
-0.02456	0.00674
-0.02456	-0.00035
-0.02456	0.00207
-0.02456	0.00352
-0.02461	0.00738
-0.02461	0.00352
-0.02461	0.00384
-0.02461	0.00126
-0.02461	0.00497
-0.02461	0.00062
-0.02461	0.00593
-0.02461	0.00287
-0.02461	0.00754
-0.02461	0.00642
-0.02461	0.00094
-0.02467	0.00851
-0.02467	0.00465
-0.02467	0.00271
-0.02467	0.00642
-0.02467	-0.00019
-0.02467	0.00803
-0.02467	-0.00019
-0.02467	0.00239
-0.02467	0.00352
-0.02467	-0.00180
-0.02467	0.00384
-0.02472	0.00513
-0.02472	0.00191
-0.02472	0.00835
-0.02472	0.00497
-0.02472	0.00529
-0.02472	0.00030
-0.02472	0.00191
-0.02472	0.00497
-0.02472	-0.00051
-0.02472	0.00642
-0.02472	0.00175
-0.02478	0.00577
-0.02478	-0.00051
-0.02478	0.00448
-0.02478	0.00255
-0.02478	0.00416
-0.02478	0.00126
-0.02478	0.00078
-0.02478	-0.00228
-0.02478	0.00110
-0.02478	-0.00051
-0.02478	-0.00341
-0.02483	0.00239
-0.02483	-0.00035
-0.02483	0.00191
-0.02483	-0.00083
-0.02483	-0.00002
-0.02483	0.00287
-0.02483	-0.00019
-0.02483	0.00078
-0.02483	-0.00308
-0.02483	-0.00164
-0.02483	-0.00164
-0.02489	0.00030
-0.02489	-0.00051
-0.02489	0.00030
-0.02489	-0.00470
-0.02489	-0.00647
-0.02489	-0.00164
-0.02489	-0.00518
-0.02489	-0.00389
-0.02489	-0.00888
-0.02489	-0.00164
-0.02489	-0.00647
-0.02494	-0.00308
-0.02494	-0.00679
-0.02494	-0.00582
-0.02494	-0.00582
-0.02494	-0.00405
-0.02494	-0.00196
-0.02494	-0.00647
-0.02494	-0.00196
-0.02494	-0.00711
-0.02494	-0.00534
-0.02494	-0.00405
-0.02500	-0.00308
-0.02500	-0.00502
-0.02500	-0.00292
-0.02500	-0.00260
-0.02500	-0.00953
-0.02500	-0.00614
-0.02500	-0.00486
-0.02500	-0.00550
-0.02500	-0.00341
-0.02500	-0.00566
-0.02500	-0.00421